ppg
7.01000000
4.66000000
3.98000000
4.80000000
6.54000000
8.40000000
9.70000000
10.09000000
9.70000000
8.91000000
8.09000000
7.36000000
6.43000000
4.86000000
2.25000000
-1.55000000
-6.34000000
-11.66000000
-16.85000000
-21.14000000
-23.75000000
-23.96000000
-21.36000000
-16.05000000
-8.72000000
-0.49000000
7.43000000
14.09000000
18.99000000
22.04000000
23.33000000
22.94000000
20.99000000
17.67000000
13.46000000
9.05000000
5.21000000
2.51000000
1.15000000
0.96000000
1.53000000
2.47000000
3.48000000
4.45000000
5.29000000
5.88000000
6.06000000
5.58000000
4.25000000
1.93000000
-1.36000000
-5.50000000
-10.15000000
-14.76000000
-18.58000000
-20.73000000
-20.49000000
-17.54000000
-12.14000000
-5.08000000
2.46000000
9.37000000
14.84000000
18.47000000
20.21000000
20.13000000
18.39000000
15.15000000
10.80000000
6.02000000
1.69000000
-1.29000000
-2.32000000
-1.38000000
1.03000000
4.08000000
7.01000000
9.33000000
10.92000000
11.86000000
12.21000000
11.80000000
10.35000000
7.60000000
3.57000000
-1.35000000
-6.47000000
-10.94000000
-14.01000000
-15.10000000
-13.93000000
-10.51000000
-5.10000000
1.82000000
9.66000000
17.85000000
25.84000000
33.16000000
39.27000000
43.65000000
45.83000000
45.48000000
42.66000000
37.79000000
31.70000000
25.46000000
20.25000000
17.01000000
16.25000000
17.81000000
20.88000000
24.28000000
26.93000000
28.17000000
28.08000000
27.27000000
26.56000000
26.44000000
26.78000000
26.78000000
25.17000000
20.82000000
13.22000000
2.93000000
-8.43000000
-18.58000000
-25.30000000
-27.16000000
-24.09000000
-17.23000000
-8.57000000
-0.22000000
6.21000000
9.79000000
10.27000000
7.68000000
2.24000000
-5.70000000
-15.50000000
-26.17000000
-36.38000000
-44.72000000
-50.09000000
-52.00000000
-50.69000000
-47.10000000
-42.49000000
-38.14000000
-34.90000000
-33.21000000
-33.05000000
-34.29000000
-36.69000000
-40.12000000
-44.43000000
-49.50000000
-55.25000000
-61.60000000
-68.43000000
-75.44000000
-82.00000000
-87.01000000
-89.11000000
-87.13000000
-80.60000000
-70.13000000
-57.30000000
-44.22000000
-32.77000000
-24.16000000
-18.68000000
-15.96000000
-15.32000000
-16.11000000
-17.74000000
-19.67000000
-21.19000000
-21.48000000
-19.85000000
-16.00000000
-10.20000000
-3.12000000
4.51000000
12.16000000
19.65000000
27.17000000
35.08000000
43.75000000
53.58000000
64.81000000
77.46000000
91.09000000
104.72000000
116.82000000
125.62000000
129.68000000
128.37000000
122.23000000
112.89000000
102.56000000
93.34000000
86.58000000
82.60000000
80.84000000
80.30000000
80.20000000
80.32000000
81.00000000
82.83000000
86.11000000
90.57000000
95.19000000
98.58000000
99.43000000
97.07000000
91.94000000
85.64000000
80.71000000
80.03000000
85.88000000
99.10000000
118.62000000
141.23000000
162.26000000
176.54000000
179.64000000
169.10000000
144.97000000
109.95000000
68.42000000
25.30000000
-15.34000000
-51.16000000
-81.66000000
-107.71000000
-130.65000000
-151.75000000
-171.81000000
-191.32000000
-210.57000000
-229.62000000
-247.98000000
-264.37000000
-276.79000000
-283.13000000
-281.95000000
-273.17000000
-258.05000000
-238.72000000
-217.12000000
-194.44000000
-170.93000000
-146.35000000
-120.70000000
-94.66000000
-69.56000000
-46.93000000
-27.90000000
-12.74000000
-0.88000000
8.79000000
17.50000000
26.33000000
36.16000000
47.61000000
60.99000000
76.12000000
92.15000000
107.47000000
120.05000000
127.96000000
130.05000000
126.38000000
118.27000000
107.86000000
97.34000000
88.30000000
81.38000000
76.41000000
72.91000000
70.44000000
68.99000000
68.87000000
70.40000000
73.58000000
77.90000000
82.45000000
86.19000000
88.27000000
88.18000000
85.81000000
81.37000000
75.33000000
68.47000000
61.91000000
56.93000000
54.61000000
55.36000000
58.52000000
62.38000000
64.79000000
64.06000000
59.69000000
52.61000000
44.75000000
38.05000000
33.73000000
31.86000000
31.57000000
31.66000000
31.18000000
29.88000000
28.26000000
27.41000000
28.48000000
32.19000000
38.28000000
45.47000000
51.82000000
55.29000000
54.46000000
48.69000000
37.85000000
21.78000000
0.08000000
-27.58000000
-60.61000000
-96.91000000
-132.74000000
-163.75000000
-186.35000000
-198.82000000
-201.53000000
-196.28000000
-185.38000000
-171.00000000
-155.19000000
-140.26000000
-128.76000000
-122.92000000
-123.59000000
-129.48000000
-137.27000000
-142.87000000
-143.17000000
-137.33000000
-127.12000000
-115.96000000
-107.44000000
-103.98000000
-106.31000000
-113.63000000
-124.35000000
-136.66000000
-148.78000000
-159.02000000
-165.68000000
-167.18000000
-162.36000000
-151.08000000
-134.48000000
-115.08000000
-96.19000000
-80.94000000
-71.17000000
-66.97000000
-66.71000000
-67.87000000
-67.85000000
-64.47000000
-56.12000000
-41.59000000
-19.75000000
10.27000000
48.64000000
94.17000000
143.95000000
193.66000000
238.58000000
274.92000000
300.76000000
316.27000000
323.05000000
323.15000000
318.25000000
309.57000000
298.30000000
286.21000000
275.74000000
269.29000000
267.89000000
270.20000000
272.60000000
270.41000000
259.73000000
238.96000000
209.12000000
172.77000000
132.57000000
89.94000000
44.97000000
-2.61000000
-52.06000000
-100.93000000
-145.36000000
-181.52000000
-207.19000000
-222.66000000
-230.31000000
-233.47000000
-235.13000000
-237.24000000
-240.68000000
-245.66000000
-251.93000000
-258.80000000
-265.04000000
-269.16000000
-269.90000000
-266.98000000
-261.27000000
-254.59000000
-248.93000000
-245.82000000
-245.98000000
-249.35000000
-255.19000000
-262.20000000
-268.40000000
-271.26000000
-268.02000000
-256.21000000
-234.24000000
-201.78000000
-159.79000000
-110.25000000
-55.69000000
1.26000000
57.98000000
112.09000000
161.53000000
204.77000000
241.10000000
270.63000000
294.02000000
311.86000000
324.01000000
329.43000000
326.57000000
314.46000000
293.72000000
267.07000000
238.65000000
212.49000000
190.73000000
172.83000000
155.68000000
134.93000000
106.80000000
69.69000000
25.20000000
-21.84000000
-64.49000000
-95.84000000
-111.44000000
-110.98000000
-98.37000000
-79.79000000
-60.71000000
-43.14000000
-25.06000000
-2.05000000
29.35000000
68.79000000
111.10000000
148.08000000
171.75000000
177.69000000
166.47000000
142.86000000
113.24000000
82.83000000
53.85000000
25.64000000
-3.90000000
-36.28000000
-71.07000000
-105.69000000
-136.37000000
-159.55000000
-173.11000000
-176.85000000
-172.09000000
-160.92000000
-145.46000000
-127.55000000
-108.96000000
-91.80000000
-78.66000000
-72.19000000
-74.32000000
-85.45000000
-104.25000000
-128.11000000
-154.06000000
-179.50000000
-202.38000000
-220.90000000
-233.11000000
-236.98000000
-231.11000000
-215.58000000
-192.26000000
-164.17000000
-134.08000000
-103.18000000
-70.65000000
-34.40000000
7.48000000
55.10000000
106.34000000
157.25000000
203.29000000
240.73000000
267.48000000
283.14000000
288.58000000
285.05000000
273.79000000
255.92000000
232.80000000
206.14000000
178.00000000
150.15000000
123.30000000
96.67000000
68.03000000
34.39000000
-6.75000000
-56.02000000
-111.10000000
-166.49000000
-214.47000000
-247.01000000
-258.19000000
-245.91000000
-212.27000000
-162.33000000
-102.07000000
-36.54000000
30.54000000
95.88000000
155.22000000
202.96000000
233.19000000
242.14000000
230.20000000
202.32000000
166.26000000
129.49000000
96.46000000
67.41000000
39.45000000
8.67000000
-27.38000000
-68.27000000
-110.75000000
-149.82000000
-180.42000000
-198.90000000
-203.92000000
-196.46000000
-179.04000000
-154.69000000
-126.07000000
-95.31000000
-64.42000000
-35.65000000
-11.25000000
7.37000000
20.82000000
32.31000000
46.76000000
68.93000000
101.11000000
141.86000000
186.34000000
228.03000000
260.98000000
281.34000000
287.71000000
280.60000000
261.47000000
232.37000000
195.99000000
155.92000000
116.52000000
82.36000000
57.12000000
42.75000000
39.12000000
44.36000000
55.47000000
68.95000000
81.06000000
88.13000000
86.91000000
75.30000000
53.13000000
22.63000000
-11.77000000
-44.25000000
-69.03000000
-81.88000000
-81.21000000
-68.55000000
-48.06000000
-25.32000000
-5.67000000
7.36000000
12.87000000
12.56000000
9.56000000
7.17000000
7.50000000
10.92000000
16.43000000
22.41000000
27.34000000
30.20000000
30.22000000
26.68000000
18.77000000
5.97000000
-11.41000000
-31.88000000
-53.09000000
-72.48000000
-88.30000000
-100.13000000
-108.87000000
-116.12000000
-123.33000000
-131.05000000
-138.62000000
-144.25000000
-145.60000000
-140.74000000
-129.03000000
-111.78000000
-91.97000000
-73.15000000
-57.71000000
-45.47000000
-33.60000000
-17.57000000
6.87000000
41.83000000
86.64000000
138.07000000
191.47000000
241.87000000
284.75000000
316.46000000
334.55000000
338.23000000
328.78000000
309.61000000
285.54000000
261.40000000
240.46000000
223.43000000
208.48000000
192.17000000
171.01000000
142.81000000
107.51000000
67.13000000
25.04000000
-15.19000000
-50.83000000
-80.72000000
-105.21000000
-125.92000000
-144.88000000
-163.94000000
-184.16000000
-205.55000000
-227.09000000
-247.05000000
-263.32000000
-273.93000000
-277.53000000
-273.78000000
-263.75000000
-249.91000000
-235.73000000
-224.91000000
-220.21000000
-222.30000000
-229.22000000
-236.70000000
-239.45000000
-233.32000000
-217.31000000
-194.58000000
-171.87000000
-157.54000000
-158.90000000
-179.80000000
-219.38000000
-271.93000000
-328.29000000
-377.98000000
-411.74000000
-423.77000000
-412.89000000
-382.32000000
-338.16000000
-287.23000000
-235.33000000
-186.27000000
-141.95000000
-102.75000000
-67.89000000
-35.45000000
-2.83000000
32.16000000
69.60000000
106.38000000
136.40000000
152.85000000
151.53000000
133.32000000
104.61000000
75.22000000
54.84000000
49.58000000
60.45000000
83.93000000
114.11000000
144.89000000
171.43000000
190.25000000
198.80000000
195.19000000
178.80000000
151.54000000
118.58000000
87.78000000
67.21000000
61.83000000
70.89000000
87.73000000
102.25000000
105.21000000
92.44000000
66.68000000
36.22000000
11.14000000
-1.18000000
1.10000000
14.07000000
30.21000000
41.85000000
44.18000000
36.45000000
21.61000000
4.46000000
-10.58000000
-20.99000000
-26.65000000
-28.96000000
-29.26000000
-27.37000000
-21.07000000
-6.95000000
17.51000000
51.77000000
91.22000000
128.36000000
155.84000000
169.97000000
172.62000000
170.43000000
171.55000000
181.67000000
201.58000000
227.13000000
251.53000000
268.35000000
273.55000000
265.86000000
245.81000000
214.72000000
174.54000000
128.46000000
81.63000000
40.80000000
12.61000000
1.19000000
6.62000000
25.08000000
50.70000000
78.23000000
105.04000000
131.14000000
157.46000000
183.74000000
206.93000000
221.79000000
222.77000000
206.65000000
174.01000000
129.19000000
78.75000000
29.54000000
-13.04000000
-45.95000000
-68.66000000
-82.95000000
-92.60000000
-102.68000000
-118.54000000
-144.06000000
-180.09000000
-223.81000000
-269.52000000
-310.82000000
-342.83000000
-363.46000000
-373.28000000
-374.29000000
-368.71000000
-358.41000000
-345.11000000
-330.87000000
-317.99000000
-308.24000000
-301.76000000
-296.75000000
-290.33000000
-279.90000000
-264.44000000
-244.68000000
-222.06000000
-197.53000000
-170.81000000
-140.81000000
-106.56000000
-68.24000000
-27.32000000
13.79000000
52.92000000
88.95000000
122.34000000
154.77000000
188.42000000
224.85000000
264.22000000
304.98000000
344.27000000
378.71000000
405.15000000
421.14000000
425.16000000
416.69000000
396.56000000
367.15000000
332.12000000
295.32000000
259.62000000
226.21000000
194.71000000
164.28000000
134.78000000
107.23000000
83.29000000
64.36000000
50.77000000
41.58000000
34.93000000
28.28000000
18.80000000
3.77000000
-18.42000000
-47.07000000
-78.42000000
-106.43000000
-124.80000000
-129.38000000
-119.57000000
-98.02000000
-68.83000000
-35.71000000
-1.40000000
31.63000000
60.25000000
80.69000000
90.06000000
88.42000000
79.99000000
72.10000000
72.22000000
84.36000000
106.92000000
133.03000000
153.41000000
160.08000000
149.16000000
121.69000000
82.38000000
37.28000000
-8.10000000
-49.69000000
-84.64000000
-110.73000000
-126.25000000
-130.43000000
-124.23000000
-110.59000000
-93.95000000
-78.90000000
-68.71000000
-64.51000000
-65.51000000
-70.04000000
-76.79000000
-85.47000000
-96.71000000
-111.23000000
-128.95000000
-148.63000000
-168.31000000
-186.10000000
-201.07000000
-213.45000000
-224.46000000
-235.57000000
-247.85000000
-261.25000000
-274.30000000
-284.12000000
-286.86000000
-278.87000000
-257.98000000
-224.89000000
-183.69000000
-141.01000000
-103.86000000
-77.00000000
-61.03000000
-52.35000000
-44.97000000
-33.48000000
-15.39000000
8.18000000
33.87000000
58.33000000
80.09000000
100.11000000
120.54000000
142.99000000
167.07000000
190.37000000
209.66000000
222.45000000
227.99000000
227.16000000
221.45000000
211.91000000
198.98000000
182.99000000
164.97000000
146.98000000
131.78000000
121.54000000
116.87000000
116.36000000
116.98000000
115.12000000
107.83000000
93.43000000
71.69000000
43.42000000
10.01000000
-27.06000000
-66.76000000
-108.59000000
-152.34000000
-197.27000000
-241.12000000
-279.60000000
-306.83000000
-317.18000000
-307.53000000
-279.10000000
-237.56000000
-191.39000000
-148.91000000
-115.60000000
-92.88000000
-78.81000000
-70.18000000
-64.33000000
-60.05000000
-57.13000000
-55.23000000
-53.10000000
-48.82000000
-40.79000000
-28.68000000
-13.75000000
1.78000000
15.99000000
28.22000000
39.17000000
50.17000000
62.18000000
75.00000000
87.31000000
97.15000000
102.86000000
103.70000000
99.90000000
92.38000000
82.38000000
71.09000000
59.71000000
49.51000000
41.84000000
37.96000000
38.66000000
44.01000000
53.38000000
65.52000000
78.89000000
91.97000000
103.31000000
111.78000000
116.54000000
117.24000000
114.03000000
107.55000000
98.89000000
89.28000000
79.81000000
71.42000000
64.68000000
59.88000000
57.03000000
55.80000000
55.64000000
55.82000000
55.65000000
54.63000000
52.59000000
49.53000000
45.54000000
40.63000000
34.59000000
27.23000000
18.47000000
8.53000000
-2.12000000
-12.72000000
-22.34000000
-29.86000000
-34.15000000
-34.17000000
-29.42000000
-20.18000000
-7.73000000
5.97000000
18.80000000
29.18000000
36.53000000
41.18000000
43.97000000
45.64000000
46.45000000
46.23000000
44.68000000
41.77000000
37.83000000
33.45000000
29.01000000
24.51000000
19.53000000
13.62000000
6.59000000
-1.32000000
-9.47000000
-17.29000000
-24.46000000
-30.97000000
-36.96000000
-42.41000000
-46.99000000
-50.10000000
-51.20000000
-50.08000000
-47.03000000
-42.74000000
-37.97000000
-33.06000000
-27.68000000
-20.75000000
-10.79000000
3.60000000
23.08000000
47.06000000
73.48000000
99.07000000
119.94000000
132.41000000
133.96000000
124.01000000
104.13000000
77.77000000
49.28000000
22.81000000
1.25000000
-14.17000000
-23.80000000
-28.94000000
-31.21000000
-32.17000000
-33.04000000
-34.75000000
-37.85000000
-42.36000000
-47.74000000
-52.86000000
-56.48000000
-57.65000000
-56.07000000
-52.19000000
-46.97000000
-41.53000000
-36.86000000
-33.64000000
-32.14000000
-32.20000000
-33.11000000
-33.70000000
-32.57000000
-28.49000000
-20.86000000
-9.91000000
3.29000000
17.24000000
30.49000000
41.95000000
51.01000000
57.37000000
60.92000000
61.56000000
59.40000000
54.82000000
48.62000000
41.77000000
35.23000000
29.58000000
24.95000000
21.09000000
17.65000000
14.40000000
11.38000000
8.78000000
6.83000000
5.60000000
4.93000000
4.52000000
4.06000000
3.26000000
1.84000000
-0.52000000
-4.24000000
-9.60000000
-16.48000000
-24.06000000
-30.87000000
-35.12000000
-35.28000000
-30.70000000
-21.89000000
-10.39000000
1.77000000
12.80000000
21.59000000
27.89000000
32.04000000
34.64000000
36.18000000
36.87000000
36.78000000
36.05000000
35.02000000
34.38000000
35.08000000
37.87000000
43.07000000
50.16000000
57.91000000
64.69000000
69.15000000
70.57000000
69.09000000
65.46000000
60.69000000
55.71000000
51.18000000
47.43000000
44.35000000
41.23000000
36.68000000
28.84000000
15.97000000
-2.88000000
-27.31000000
-55.57000000
-85.11000000
-113.48000000
-138.94000000
-160.73000000
-178.59000000
-192.30000000
-201.22000000
-204.39000000
-200.94000000
-190.72000000
-174.63000000
-154.65000000
-133.24000000
-112.69000000
-94.47000000
-78.93000000
-65.56000000
-53.40000000
-41.64000000
-29.96000000
-18.56000000
-7.95000000
1.30000000
8.78000000
14.35000000
18.02000000
19.84000000
19.85000000
18.05000000
14.49000000
9.32000000
2.81000000
-4.55000000
-12.09000000
-18.91000000
-24.03000000
-26.52000000
-25.77000000
-21.58000000
-14.19000000
-4.18000000
7.79000000
21.10000000
35.11000000
49.04000000
61.81000000
72.03000000
78.38000000
79.95000000
76.66000000
69.27000000
59.15000000
47.80000000
36.41000000
25.64000000
15.69000000
6.47000000
-2.04000000
-9.72000000
-16.20000000
-21.11000000
-24.20000000
-25.54000000
-25.49000000
-24.60000000
-23.43000000
-22.42000000
-21.86000000
-21.98000000
-22.94000000
-24.75000000
-27.13000000
-29.37000000
-30.38000000
-29.05000000
-24.71000000
-17.44000000
-8.09000000
1.96000000
11.34000000
19.08000000
24.69000000
28.13000000
29.50000000
28.94000000
26.61000000
22.76000000
17.86000000
12.41000000
7.02000000
2.12000000
-1.98000000
-5.12000000
-7.30000000
-8.66000000
-9.36000000
-9.65000000
-9.73000000
-9.72000000
-9.72000000
-9.85000000
-10.30000000
-11.38000000
-13.42000000
-16.68000000
-21.24000000
-26.92000000
-33.24000000
-39.45000000
-44.57000000
-47.64000000
-47.98000000
-45.36000000
-40.30000000
-33.97000000
-28.04000000
-24.24000000
-23.92000000
-27.61000000
-34.71000000
-43.68000000
-52.20000000
-57.73000000
-58.18000000
-52.46000000
-40.82000000
-24.92000000
-7.46000000
8.54000000
20.56000000
27.36000000
29.37000000
28.61000000
27.91000000
29.93000000
36.16000000
46.37000000
58.78000000
70.80000000
80.00000000
84.90000000
85.35000000
82.21000000
76.91000000
70.94000000
65.51000000
61.48000000
59.50000000
59.91000000
62.61000000
66.99000000
71.85000000
75.76000000
77.50000000
76.50000000
73.03000000
68.10000000
63.03000000
59.03000000
56.83000000
56.61000000
57.98000000
60.29000000
62.78000000
64.86000000
66.19000000
66.62000000
66.01000000
64.14000000
60.67000000
55.26000000
47.83000000
38.61000000
28.21000000
17.39000000
6.94000000
-2.55000000
-10.65000000
-17.01000000
-21.41000000
-23.73000000
-24.02000000
-22.45000000
-19.16000000
-14.21000000
-7.39000000
1.56000000
12.68000000
25.53000000
38.86000000
50.68000000
58.54000000
60.04000000
53.58000000
38.81000000
17.11000000
-8.62000000
-34.63000000
-57.28000000
-74.22000000
-85.08000000
-91.40000000
-95.89000000
-101.13000000
-108.58000000
-118.05000000
-128.14000000
-137.03000000
-143.41000000
-146.88000000
-147.82000000
-146.80000000
-144.14000000
-139.65000000
-132.84000000
-123.16000000
-110.18000000
-93.64000000
-73.32000000
-49.17000000
-21.50000000
8.78000000
39.97000000
69.81000000
95.68000000
115.16000000
126.46000000
128.88000000
122.91000000
110.26000000
93.52000000
75.66000000
59.33000000
46.30000000
37.22000000
31.66000000
28.55000000
26.67000000
25.07000000
23.23000000
21.09000000
18.80000000
16.50000000
14.20000000
11.62000000
8.39000000
4.17000000
-1.11000000
-7.24000000
-13.76000000
-20.15000000
-25.93000000
-30.71000000
-34.17000000
-35.95000000
-35.60000000
-32.74000000
-27.26000000
-19.46000000
-10.12000000
-0.36000000
8.56000000
15.63000000
20.22000000
22.27000000
22.10000000
20.30000000
17.53000000
14.40000000
11.39000000
8.85000000
6.99000000
5.88000000
5.37000000
5.20000000
5.07000000
4.76000000
4.23000000
3.56000000
2.86000000
2.20000000
1.46000000
0.47000000
-1.02000000
-3.18000000
-6.07000000
-9.66000000
-13.79000000
-18.14000000
-22.18000000
-25.17000000
-26.26000000
-24.80000000
-20.60000000
-14.04000000
-6.12000000
1.95000000
8.98000000
14.19000000
17.26000000
18.26000000
17.42000000
14.98000000
11.21000000
6.44000000
1.13000000
-4.11000000
-8.72000000
-12.28000000
-14.65000000
-15.90000000
-16.25000000
-15.92000000
-15.11000000
