ppg
17.03755000
10.84067886
4.87030838
-0.13209228
-3.60357080
-5.27884287
-5.26871895
-4.04898079
-2.33490295
-0.86531243
-0.17100063
-0.42491297
-1.44434767
-2.84563508
-4.27408984
-5.59108746
-6.92440702
-8.56385790
-10.76485207
-13.56220925
-16.67810863
-19.55206528
-21.46607209
-21.71402617
-19.77274608
-15.44815374
-8.97224504
-1.01747380
7.40182092
15.13885110
21.17975849
24.87007032
26.01469328
24.82436515
21.75951689
17.36664119
12.18489265
6.73652250
1.55095759
-2.84617831
-6.01127379
-7.69879015
-7.94542317
-7.06250617
-5.52899441
-3.83534315
-2.35386562
-1.28913797
-0.71204631
-0.63731353
-1.08991586
-2.12353570
-3.78774527
-6.06653563
-8.81738591
-11.73308518
-14.33989611
-16.04248330
-16.22418155
-14.39800909
-10.37644832
-4.40113992
2.83294008
10.29631301
16.86486346
21.59767994
23.94634092
23.82145353
21.51379686
17.53699026
12.48487426
6.96359728
1.59082050
-2.99907188
-6.20933629
-7.61213388
-7.10413719
-4.99289511
-1.94157276
1.22659140
3.78260192
5.28692007
5.63868255
4.97423551
3.49397810
1.32930507
-1.47457722
-4.86275069
-8.63493681
-12.36447441
-15.43032937
-17.15534726
-16.99068133
-14.67073264
-10.28490638
-4.25251473
2.77789150
10.06432402
16.89814644
22.68713379
26.98125359
29.45476666
29.87832511
28.11730697
24.17467829
18.26502401
10.87971075
2.79693551
-4.99461946
-11.46121060
-15.74841889
-17.40634568
-16.54078926
-13.82019238
-10.30566731
-7.13697995
-5.17548948
-4.74201734
-5.56606757
-6.98062507
-8.28746216
-9.13497664
-9.73500231
-10.80613631
-13.24590013
-17.65516917
-23.91466480
-31.01021728
-37.21614974
-40.60415751
-39.70241991
-34.04997616
-24.41987069
-12.61589633
-0.92553455
8.54663962
14.40510309
16.17644206
14.19788276
9.31405735
2.56649414
-4.99373554
-12.35213486
-18.51559453
-22.54329246
-23.67986628
-21.55877130
-16.37612990
-8.92699292
-0.45087433
7.67721883
14.29759753
18.72426643
20.82207652
20.89992562
19.49536788
17.15637867
14.30031079
11.17486859
7.89956611
4.54908772
1.24850809
-1.73552048
-3.92589058
-4.62727230
-3.02935111
1.55865985
9.39351722
20.03029765
32.25176718
44.28135945
54.23651677
60.65379227
62.87154461
61.12164783
56.32357348
49.71044085
42.47205362
35.55119653
29.61445326
25.11467621
22.33447391
21.35687256
21.99894381
23.79427843
26.08533498
28.21287515
29.72260835
30.49316107
30.73272081
30.85873116
31.31830204
32.40893387
34.13599388
36.12326837
37.59334611
37.44823623
34.47907213
27.69481823
16.69279256
1.93553319
-15.20693856
-32.72022574
-48.45985191
-60.74193032
-68.78381616
-72.81845563
-73.84160233
-73.11257284
-71.63782640
-69.86591602
-67.71214233
-64.86780355
-61.21318550
-57.10927435
-53.40767555
-51.15433972
-51.10449866
-53.25388268
-56.59402201
-59.22514337
-58.83930155
-53.45561928
-42.19106665
-25.81590693
-6.88378195
10.66252028
22.35427225
24.32147266
14.36900105
-7.32182169
-38.10607322
-73.46594862
-108.12487766
-137.34587795
-158.00008053
-169.07227292
-171.48794158
-167.40891467
-159.32981588
-149.32996251
-138.69414896
-127.89866556
-116.79517759
-104.80323893
-91.03119943
-74.38502824
-53.78005545
-28.49627682
1.42962441
34.98578252
70.31516962
105.19644007
137.67355746
166.53163946
191.39186669
212.41064856
229.78794264
243.38319316
252.65519885
256.94167554
255.89866180
249.84274452
239.81444701
227.34734889
214.07471028
201.35232852
190.01892909
180.31329326
171.89481471
163.91236634
155.11788446
144.06698443
129.43834342
110.43254338
87.12422483
60.60290577
32.79054099
5.95685574
-17.89929887
-37.55725900
-52.76945775
-64.08883523
-72.44312409
-78.67718657
-83.27676267
-86.37258938
-87.96928213
-88.23346124
-87.66489190
-87.05861449
-87.28785249
-89.02536618
-92.53264203
-97.58830822
-103.54681045
-109.47191221
-114.29905807
-117.01963142
-116.90145202
-113.73272857
-108.01125205
-100.95153085
-94.21323972
-89.37755279
-87.35317020
-87.98232591
-90.06321745
-91.81643430
-91.59913457
-88.54074314
-82.81310012
-75.43282309
-67.71839045
-60.67172536
-54.56352938
-48.88949215
-42.69646715
-35.12523320
-25.93154424
-15.75848750
-6.03838874
1.43551516
5.07388885
3.93346842
-2.14844341
-12.72651003
-27.03832201
-44.16279390
-62.91296724
-81.56079336
-97.67600899
-108.35153831
-110.86424981
-103.52373670
-86.29927947
-60.90668433
-30.32739268
1.97182190
32.74622298
59.37807890
80.01154286
93.62260408
100.18500760
100.87829380
98.08664064
94.94195620
94.40434010
98.19690686
106.09304986
115.94760041
124.51145834
128.67800744
126.60831109
118.27740882
105.30250244
90.25751551
75.85922265
64.36241474
57.29686710
55.46093508
58.98230653
67.30558343
79.11157344
92.30866490
104.26737783
112.36103812
114.68553661
110.67918038
101.35665139
89.03140110
76.64041149
66.96249393
62.03864852
62.95825764
69.95722319
82.61654115
99.94668237
120.29099623
141.18080812
159.38769929
171.35437336
173.96832575
165.40361011
145.65297657
116.48676569
80.85328124
42.01651726
2.83943660
-34.50732566
-68.42333059
-97.62525038
-121.11056917
-138.48813538
-150.49229308
-159.26531294
-168.04260482
-180.20330468
-198.05990574
-221.98264861
-250.32315762
-280.17890365
-308.57446558
-333.41313417
-353.71708235
-369.12619367
-379.08332701
-382.31500998
-377.01079078
-361.64328047
-335.95045463
-301.48860850
-261.41621412
-219.60764203
-179.54100618
-143.46175519
-112.10154584
-84.91315616
-60.57581692
-37.52006055
-14.34912428
9.84638342
35.26330965
61.28867709
86.60646298
109.53664885
128.52345287
142.60306140
151.68942558
156.61334849
158.96125315
160.80979727
164.42719456
171.95913496
185.09397700
204.72992845
230.71852156
261.78284214
295.67242935
329.52969879
360.35793185
385.45386923
402.71063568
410.77363979
409.08749345
397.86999787
378.00526155
350.81730888
317.71817438
279.81912391
237.68579794
191.41968245
141.11396089
87.50725998
32.47314469
-21.02100387
-69.62125439
-110.73257193
-143.58703225
-169.68379251
-192.30023576
-215.18614058
-240.92273431
-269.59384334
-298.32662742
-321.96064931
-334.69448043
-332.16363596
-313.16281993
-280.26780817
-238.99230467
-195.73893064
-155.40902327
-119.79100029
-87.54514729
-55.82805690
-22.73152616
10.76767726
40.43847639
60.27882578
65.13726085
53.14853591
26.75889914
-8.14367622
-44.51511246
-76.70617376
-102.08175100
-121.06915367
-135.82132996
-148.32883235
-158.97676749
-166.19583798
-167.23726060
-159.55150513
-142.03252789
-115.56436023
-82.72989768
-46.96347205
-11.63740881
20.50780382
47.46519520
67.77122598
80.33799397
84.53056316
80.47318798
69.35364651
53.45448786
35.79925876
19.54438085
7.39929118
1.31249656
2.45719500
11.34501344
27.85172006
51.09034890
79.29062987
109.94655135
140.36648034
168.47128068
193.44073277
215.79962126
236.80359856
257.38182792
277.16974511
294.14651624
305.08704698
306.62294338
296.41333081
273.90453759
240.39743638
198.49654026
151.28836384
101.65098404
51.93191965
3.96893587
-40.76962999
-81.16946200
-116.67180676
-147.57051933
-175.14569824
-201.39469825
-228.29296526
-256.76191837
-285.72690691
-311.71385518
-329.30446996
-332.46491711
-316.38274515
-279.15902401
-222.67391755
-152.24149813
-75.19337571
0.97209941
70.05443959
127.67602272
170.89825096
197.50924545
205.72211610
194.66855357
165.42568131
121.81029234
70.17235951
17.95322480
-28.47843587
-65.70846745
-93.94719377
-116.15428549
-136.05673004
-156.01799884
-175.72803883
-192.22933870
-201.15026507
-198.50820523
-182.27882046
-153.12531060
-114.10836671
-69.64475481
-24.25635382
18.35815593
55.66622816
86.16462121
109.11912039
124.52195161
133.33812583
137.77123963
141.12043079
146.96879802
157.86304527
174.04897542
192.93481632
209.65927713
218.59763858
215.16770793
197.17545147
165.22436304
122.21183204
72.34189518
20.17945622
-29.93996921
-74.15947680
-109.24011139
-132.80632986
-143.72257301
-142.42955063
-131.01629106
-112.92041671
-92.33313527
-73.50058566
-60.09521884
-54.72529338
-58.56281667
-71.07373831
-89.91230286
-111.11196635
-129.68833691
-140.64242535
-140.16765410
-126.71772446
-101.56613393
-68.60958984
-33.40225036
-1.67459603
22.20858417
36.34574410
41.58322389
40.90685253
38.19121695
36.79598901
38.53722508
43.37195825
49.80458105
55.71777643
59.19952685
59.03464289
54.77804750
46.56919709
34.93933076
20.76721828
5.34559302
-9.62005777
-22.24362815
-30.92488585
-34.86319408
-34.34540717
-30.61601981
-25.33980088
-19.87301563
-14.66001026
-9.02721040
-1.48654676
9.54662679
24.89631130
43.99715625
64.82105343
84.49151445
100.41239184
111.44906049
118.59586379
124.73939391
133.53300248
147.83508363
168.38687304
193.28686920
218.43231108
238.66799482
249.14047432
246.39494036
228.98647912
197.62270662
154.96495166
105.17592882
53.22070388
3.93211588
-39.02388706
-73.99218443
-101.64277718
-124.55443977
-146.14844429
-169.33827932
-195.39964532
-223.48385467
-250.93619514
-274.26093769
-290.33614183
-297.41868150
-295.60256051
-286.63009110
-273.19765743
-258.05089522
-243.18662207
-229.38984982
-216.18793379
-202.16413566
-185.48795254
-164.50224393
-138.23900045
-106.78154230
-71.41997222
-34.55568259
0.67861491
31.07691982
54.20265559
69.20562274
77.31461369
81.71736681
86.69184041
96.13348701
111.93367808
132.84464440
154.38468521
169.98300881
173.07287781
159.43727874
128.97848715
86.27255232
39.69017521
-0.65693099
-25.51765862
-28.86839891
-9.34754257
29.64160884
81.12879368
136.62046560
188.27763066
230.54194932
260.82213939
279.26889664
287.97578936
289.99604372
288.40061289
285.41864122
281.68352979
275.77044756
264.37129000
243.36881772
209.66670267
163.11121440
107.56432426
50.41502428
0.50375149
-34.76667210
-51.91046021
-52.37858158
-41.77309902
-27.74966676
-17.61981302
-16.61379831
-27.23776048
-49.51458103
-81.53368076
-119.83893237
-159.62261533
-195.10863856
-220.55839572
-231.93145678
-228.62912518
-214.37084848
-196.42709849
-183.15830469
-180.73086817
-190.46610832
-208.13776496
-225.67629721
-234.58605679
-229.54252128
-210.55368818
-182.77340997
-154.16833767
-132.19445804
-120.98280028
-120.16422532
-125.62998656
-131.65826281
-133.32481888
-128.13499415
-116.29102220
-99.68988632
-80.32288546
-58.98029684
-34.96511480
-6.97550076
25.33350741
60.03564310
92.76031502
118.00441288
131.44632202
132.12357632
123.26131365
111.15664551
102.53159925
101.60008805
108.26690180
118.28358055
125.17232581
122.88039910
107.90703936
80.11508017
42.24493752
-1.22932471
-45.16309709
-84.37059451
-113.98155103
-129.92222477
-129.71735810
-113.36539704
-83.72747490
-45.96887663
-6.08531615
30.87394967
62.01291287
86.62017681
105.08058979
117.37995679
122.15882708
116.94067036
99.45276920
69.30521846
29.07984993
-15.79570228
-58.37862321
-92.16468361
-112.86621833
-119.40393170
-113.91440195
-100.94718249
-86.19158504
-75.05043881
-71.30782094
-76.13286930
-87.69805278
-101.63668905
-112.32447465
-114.61132418
-105.36826709
-84.25220066
-53.45154989
-16.66072276
22.14928471
59.62539379
93.37963555
121.95274844
144.71784308
161.90799495
174.67330249
184.91774957
194.77665181
205.88697841
218.83040671
233.08571445
247.52180567
261.11428962
273.43123329
284.60352282
294.84709163
303.89720064
310.76410097
314.00738434
312.39883064
305.60295584
294.48169264
280.82228246
266.58216505
252.98732913
239.89256861
225.68352056
207.74458913
183.27269009
150.10861594
107.32340478
55.46476548
-3.49280962
-66.42372686
-129.52766384
-188.98882184
-241.71263804
-285.91035247
-321.26869695
-348.58834550
-369.04925670
-383.48322171
-392.03637215
-394.37301257
-390.25940504
-380.17564928
-365.63475474
-349.07182849
-333.35100200
-321.02783584
-313.52900371
-310.45530268
-309.28803453
-305.77242227
-295.04928625
-273.23842681
-238.85254476
-193.39499504
-140.86318567
-86.45068392
-35.13827284
9.19142534
43.94172163
67.63308869
79.89608524
81.84910492
76.55239015
68.89904056
64.48341709
67.61617182
79.32820017
96.44672407
112.41633520
119.67648281
112.59036220
89.62262833
53.85022689
11.72716452
-29.17049088
-62.34497878
-83.68637898
-91.66536292
-86.76828264
-70.77084118
-46.27239583
-16.52488567
14.71286837
43.58339658
66.84147705
82.59935938
90.70634292
92.51136616
90.09213343
85.33709970
79.34345659
72.39628681
64.44546632
55.71552906
47.03800109
39.69878642
34.90464869
33.19870718
34.17409918
36.66286854
39.33089274
41.42075699
43.32555326
46.74105822
54.28263542
68.62099575
91.35917335
122.01674728
157.55408920
192.77932025
221.69095524
239.38914301
243.82954649
236.62372453
222.42548294
207.07887111
195.32678578
189.13085150
187.35789315
186.88613357
184.45961500
178.27639383
168.52033168
156.69190104
144.27346891
131.58573287
117.49147619
100.03969164
77.58199445
49.67067330
17.26855048
-17.72039538
-53.19098511
-87.36368954
-118.86618033
-146.50573788
-169.08782437
-185.56425537
-195.50751218
-199.62357523
-199.92902292
-199.38297123
-201.06958478
-207.27618388
-218.86080714
-235.14619733
-254.32841945
-274.18139773
-292.74695922
-308.72999940
-321.44206126
-330.32013634
-334.25034379
-331.07979626
-317.70850800
-290.94687317
-248.94167815
-192.58922315
-126.20073630
-56.91202271
7.11730420
59.05528010
95.31041544
116.18956381
125.09265669
126.74427316
125.37274875
123.64548812
122.64578139
122.57027225
123.50381089
125.74599553
129.58597682
134.84079102
140.61550471
145.54309693
148.38776269
148.62202384
146.59692559
143.19102580
139.15602230
134.55874321
128.64857549
120.21562030
108.22236524
92.36260015
73.28151303
52.40366090
31.51959315
12.36168127
-3.66641301
-15.58191892
-22.82078142
-25.23935081
-23.15436168
-17.38007091
-9.19156099
-0.17511178
8.01082049
13.89582286
16.40880008
15.00129854
9.68054133
0.97021581
-10.18429635
-22.55983874
-34.83950786
-45.81047547
-54.53581016
-60.46371469
-63.45841439
-63.76274492
-61.91577917
-58.64555980
-54.74690134
-50.95163365
-47.81041689
-45.61920468
-44.42022095
-44.08123757
-44.41796856
-45.29625472
-46.65888553
-48.46550800
-50.58304228
-52.68691095
-54.22117511
-54.43400049
-52.47847292
-47.56189797
-39.13117662
-27.07512310
-11.89568671
5.23277210
22.59631230
38.28700921
50.67782051
58.85155995
62.79675043
63.27597938
61.42902824
58.30538510
54.54744444
50.34884995
45.65139875
40.41644404
34.78841949
29.06464410
23.52711215
18.28106370
13.22652527
8.18516099
3.09143099
-1.88745206
-6.38402562
-9.98801498
-12.41832480
-13.59644199
-13.58288086
-12.43681858
-10.11227725
-6.47620365
-1.44600848
4.84456477
11.97572745
19.34728933
26.43825384
33.10059268
39.72728057
47.17484920
56.42155187
68.05902748
81.80040084
96.20517024
108.76135665
116.35231566
116.01083075
105.76233262
85.30886339
56.32500611
22.23225891
-12.52627880
-43.51747079
-67.34152104
-82.32318287
-88.66733169
-88.08122698
-83.06108373
-76.13280637
-69.29231756
-63.75008211
-59.93576391
-57.64276908
-56.21123375
-54.71822582
-52.19332470
-47.86687577
-41.40593838
-33.05187262
-23.58737163
-14.12819423
-5.81149337
0.51016157
4.47920496
6.30983448
6.73660855
6.85600799
7.88220956
10.84772444
16.30764481
24.13589831
33.50131902
43.05898938
51.30309369
56.95145339
59.21785915
57.88814208
53.21641848
45.73978955
36.12426945
25.09864777
13.45148890
2.01804482
-8.40113588
-17.18468086
-24.02912876
-28.99682017
-32.43167249
-34.77658295
-36.38273234
-37.40346555
-37.81487089
-37.53368874
-36.55378906
-35.02460817
-33.24199061
-31.57701747
-30.39451603
-29.99564567
-30.57626327
-32.16532619
-34.52556304
-37.05353358
-38.76470308
-38.44564858
-34.98551467
-27.79280037
-17.12347532
-4.14891811
9.30844497
21.29158927
30.27401885
35.54572245
37.27942303
36.28672510
33.60917614
30.14426781
26.45901947
22.83008935
19.43389779
16.54357516
14.59736440
14.07995180
15.26533578
17.95647018
21.37910414
24.32466386
25.51427042
24.03792730
19.67653483
12.96763960
4.99846594
-2.96978035
-9.89041707
-15.21041828
-18.99614888
-21.92035127
-25.13176786
-30.00705936
-37.78598159
-49.14314415
-63.82829477
-80.54548606
-97.18145156
-111.34151045
-120.98792901
-124.90651017
-122.80860073
-115.06832687
-102.28674227
-84.95320608
-63.39570389
-38.02571706
-9.69922632
20.06140181
49.16788873
75.39564405
96.96748210
113.02722322
123.78765630
130.29323716
133.91697892
135.82231940
136.61243859
136.27756421
134.40404004
130.50176215
124.28289044
115.78354472
105.31842522
93.33888109
80.29155734
66.54707389
52.41514572
38.21761370
24.37111295
11.43515022
0.09793980
-8.90749651
-14.94219948
-17.61766833
-16.91761692
-13.23604108
-7.30965094
-0.06930099
7.52314879
14.57920320
20.29473558
23.89942561
24.62814092
21.79367591
14.97490612
4.24560604
-9.68497765
-25.52768236
-41.68220816
-56.62607357
-69.26586268
-79.10996822
-86.20953640
-90.92344676
-93.63709654
-94.56956007
-93.74314889
-91.09982338
-86.67775667
-80.74211043
-73.80087229
-66.50464929
-59.48943396
-53.23992974
-48.02101352
-43.87259183
-40.62749761
-37.91779339
-35.17701367
-31.68853776
-26.72949452
-19.80394902
-10.88399576
-0.53679867
10.15396826
19.86871723
27.42562683
32.08937488
33.69447402
32.56291654
29.29617876
24.56323921
18.97327449
13.04871764
7.25394974
2.01902503
-2.27545984
-5.34661026
-7.06106990
-7.45984941
-6.74139145
-5.20849916
-3.19727643
-1.01052348
1.12315977
3.05225632
4.67049682
5.87017988
6.51030237
6.42438628
5.47413846
3.63252040
1.06491621
-1.82483392
-4.40937072
-5.92711331
-5.64098602
-3.03982811
1.96458169
8.90639777
16.76111240
24.10325674
29.41640879
31.49213693
29.81075480
24.78349359
17.76480867
10.80382102
6.17605351
5.80365152
10.71392434
20.68844111
34.21762384
48.80438725
61.56680923
69.99667432
72.66529391
69.65449760
62.54722021
53.93922530
46.59908495
42.54776010
42.38613808
45.12649700
48.59641628
50.25650469
48.10749530
41.33741781
30.49002746
17.15275580
3.35604477
-9.04131856
-18.76166321
-25.24000988
-28.54671182
-29.22983059
-28.17042848
-26.46001068
-25.25004225
-25.53425094
-27.89151926
-32.28540464
-38.03020289
-43.97458910
-48.85437216
-51.68489282
-52.04527604
-50.15673485
-46.74583700
-42.76681330
-39.10177493
-36.35192200
-34.78149056
-34.40261471
-35.12740683
-36.89118820
-39.67862907
-43.44794389
-48.01072852
-52.95074375
-57.64092901
-61.35974437
-63.45169434
-63.45898710
-61.17900329
-56.64823625
-50.08363123
-41.81256298
-32.20468769
-21.60527973
-10.27582770
1.63128706
14.02677673
26.74973434
39.37336861
51.03128997
60.36863725
65.69851971
65.37513802
58.30615174
44.45212393
25.12723908
2.94357330
-18.66369011
-36.25018185
-47.28748373
-50.88095264
-47.98968833
-41.02222173
-32.93029815
-26.14702440
-21.79756329
-19.49399179
-17.75776885
-14.82612445
-9.44051942
-1.26624477
9.18534773
20.99939486
33.37732794
45.96726689
58.89370121
72.55198681
87.32604061
103.36420930
120.45907744
138.00229825
154.97279336
169.95451454
181.22133261
186.93316476
185.45068206
175.71553509
157.59409977
132.07212304
101.21813520
67.89124838
35.23882164
6.09679889
-17.55070580
-34.89803859
-46.33345175
-53.14582588
-57.03117982
-59.57268266
-61.86372024
-64.37461267
-67.06186200
-69.62979331
-71.81234786
-73.55619977
-75.04427556
-76.57553941
-78.37920352
-80.46256312
-82.56387211
-84.22191477
-84.91548295
-84.19849987
-81.77158226
-77.47906520
-71.27170119
-63.19358569
-53.42551839
-42.36666591
-30.69580905
-19.34778892
-9.37548656
-1.72541704
2.99564659
4.67250298
3.69323844
0.82163247
-3.01462224
-6.94061027
-10.28921513
-12.66630646
-13.93942023
-14.18479633
-13.62224005
-12.54901466
-11.27195498
-10.04040481
-8.99524552
-8.15521926
-7.45129731
-6.79673570
-6.15942727
-5.59995433
-5.25638511
-5.28479753
-5.78491230
-6.74020889
-7.98619030
-9.20500855
-9.94241709
-9.65453937
-7.80100298
-3.98855736
1.86413749
9.40384673
17.83302088
26.04903508
32.90349205
37.49150490
39.35942860
38.55504775
35.52031192
30.89870948
25.35525979
19.47708399
13.76060055
8.63870571
4.49025432
1.60528234
0.12445726
-0.00307232
